Time[ms],Vup[V],Vdwn[V],Vdiode[V],Vled[V],Vscat[V],OD[],Temp[C],Color[],LoopCount[],Vfb_x[V],Vfb_y[V],Vfb_z[V]
733738,2.08750,2.08750,2.08750,1.36138,0.00000,0.87356,26.8793,1,4,0.13,0.00,0.00
733879,2.09025,2.09025,2.09025,1.36138,0.00000,0.87413,26.8793,1,4,0.13,0.00,0.00
734016,2.09237,2.09237,2.09237,1.36138,0.00000,0.87457,26.8804,1,4,0.13,0.00,0.00
734153,2.09400,2.09400,2.09400,1.36125,0.00000,0.87491,26.8804,1,4,0.13,0.00,0.00
734297,2.09550,2.09550,2.09550,1.36112,0.00000,0.87522,26.8804,1,4,0.13,0.00,0.00
734565,2.09775,2.09775,2.09775,1.36138,0.00000,0.87568,26.8804,1,4,0.13,0.00,0.00
734711,2.09875,2.09875,2.09875,1.36125,0.00000,0.87589,26.8804,1,4,0.13,0.00,0.00
734848,2.09962,2.09962,2.09962,1.36125,0.00000,0.87607,26.8804,1,4,0.13,0.00,0.00
734985,2.10025,2.10025,2.10025,1.36138,0.00000,0.87620,26.8804,1,4,0.13,0.00,0.00
735123,2.10087,2.10087,2.10087,1.36125,0.00000,0.87633,26.8804,1,4,0.13,0.00,0.00
735267,2.10137,2.10137,2.10137,1.36125,0.00000,0.87643,26.8804,1,4,0.13,0.00,0.00
735414,2.10187,2.10187,2.10187,1.36138,0.00000,0.87654,26.8804,1,4,0.13,0.00,0.00
735555,2.10237,2.10237,2.10237,1.36125,0.00000,0.87664,26.8804,1,4,0.13,0.00,0.00
735697,2.10275,2.10275,2.10275,1.36125,0.00000,0.87672,26.8804,1,4,0.13,0.00,0.00
735834,2.10312,2.10312,2.10312,1.36125,0.00000,0.87679,26.8804,1,4,0.13,0.00,0.00
735972,2.10338,2.10338,2.10338,1.36125,0.00000,0.87685,26.8804,1,4,0.13,0.00,0.00
736110,2.10362,2.10362,2.10362,1.36125,0.00000,0.87690,26.8804,1,4,0.13,0.00,0.00
736257,2.10387,2.10387,2.10387,1.36125,0.00000,0.87695,26.8804,1,4,0.13,0.00,0.00
736404,2.10413,2.10413,2.10413,1.36138,0.00000,0.87700,26.8804,1,4,0.13,0.00,0.00
736541,2.10437,2.10437,2.10437,1.36138,0.00000,0.87705,26.8804,1,4,0.13,0.00,0.00
736680,2.10450,2.10450,2.10450,1.36138,0.00000,0.87708,26.8804,1,4,0.13,0.00,0.00
736824,2.10462,2.10462,2.10462,1.36138,0.00000,0.87710,26.8804,1,4,0.13,0.00,0.00
736966,2.10487,2.10487,2.10487,1.36125,0.00000,0.87716,26.8804,1,4,0.13,0.00,0.00
737109,2.10500,2.10500,2.10500,1.36138,0.00000,0.87718,26.8804,1,4,0.13,0.00,0.00
737261,2.10512,2.10512,2.10512,1.36138,0.00000,0.87721,26.8804,1,4,0.13,0.00,0.00
737398,2.10525,2.10525,2.10525,1.36138,0.00000,0.87723,26.8804,1,4,0.13,0.00,0.00
737538,2.10537,2.10537,2.10537,1.36125,0.00000,0.87726,26.8804,1,4,0.13,0.00,0.00
737680,2.10550,2.10550,2.10550,1.36125,0.00000,0.87728,26.8804,1,4,0.13,0.00,0.00
737824,2.10562,2.10562,2.10562,1.36125,0.00000,0.87731,26.8804,1,4,0.13,0.00,0.00
737966,2.10575,2.10575,2.10575,1.36125,0.00000,0.87734,26.8804,1,4,0.13,0.00,0.00
738113,2.10575,2.10575,2.10575,1.36125,0.00000,0.87734,26.8815,1,4,0.13,0.00,0.00
738255,2.10575,2.10575,2.10575,1.36125,0.00000,0.87734,26.8804,1,4,0.13,0.00,0.00
738395,2.10587,2.10587,2.10587,1.36125,0.00000,0.87736,26.8815,1,4,0.13,0.00,0.00
738538,2.10600,2.10600,2.10600,1.36138,0.00000,0.87739,26.8815,1,4,0.13,0.00,0.00
738680,2.10600,2.10600,2.10600,1.36138,0.00000,0.87739,26.8815,1,4,0.13,0.00,0.00
738827,2.10612,2.10612,2.10612,1.36138,0.00000,0.87741,26.8804,1,4,0.13,0.00,0.00
738974,2.10612,2.10612,2.10612,1.36125,0.00000,0.87741,26.8815,1,4,0.13,0.00,0.00
739111,2.10612,2.10612,2.10612,1.36125,0.00000,0.87741,26.8804,1,4,0.13,0.00,0.00
739254,2.10625,2.10625,2.10625,1.36138,0.00000,0.87744,26.8815,1,4,0.13,0.00,0.00
739395,2.10625,2.10625,2.10625,1.36138,0.00000,0.87744,26.8815,1,4,0.13,0.00,0.00
739538,2.10625,2.10625,2.10625,1.36125,0.00000,0.87744,26.8815,1,4,0.13,0.00,0.00
739680,2.10625,2.10625,2.10625,1.36125,0.00000,0.87744,26.8815,1,4,0.13,0.00,0.00
739832,2.10625,2.10625,2.10625,1.36125,0.00000,0.87744,26.8815,1,4,0.13,0.00,0.00
739969,2.10637,2.10637,2.10637,1.36138,0.00000,0.87746,26.8815,1,4,0.13,0.00,0.00
740109,2.10637,2.10637,2.10637,1.36112,0.00000,0.87746,26.8804,1,4,0.13,0.00,0.00
740253,2.10637,2.10637,2.10637,1.36138,0.00000,0.87746,26.8815,1,4,0.13,0.00,0.00
740395,2.10637,2.10637,2.10637,1.36125,0.00000,0.87746,26.8815,1,4,0.13,0.00,0.00
740538,2.10650,2.10650,2.10650,1.36138,0.00000,0.87749,26.8815,1,4,0.13,0.00,0.00
740680,2.10650,2.10650,2.10650,1.36125,0.00000,0.87749,26.8815,1,4,0.13,0.00,0.00
740823,2.10650,2.10650,2.10650,1.36138,0.00000,0.87749,26.8815,1,4,0.13,0.00,0.00
740966,2.10650,2.10650,2.10650,1.36125,0.00000,0.87749,26.8815,1,4,0.13,0.00,0.00
741109,2.10650,2.10650,2.10650,1.36125,0.00000,0.87749,26.8815,1,4,0.13,0.00,0.00
741253,2.10650,2.10650,2.10650,1.36138,0.00000,0.87749,26.8815,1,4,0.13,0.00,0.00
741395,2.10650,2.10650,2.10650,1.36125,0.00000,0.87749,26.8815,1,4,0.13,0.00,0.00
741538,2.10663,2.10663,2.10663,1.36125,0.00000,0.87752,26.8815,1,4,0.13,0.00,0.00
741681,2.10663,2.10663,2.10663,1.36125,0.00000,0.87752,26.8827,1,4,0.13,0.00,0.00
741824,2.10663,2.10663,2.10663,1.36125,0.00000,0.87752,26.8827,1,4,0.13,0.00,0.00
741966,2.10663,2.10663,2.10663,1.36138,0.00000,0.87752,26.8815,1,4,0.13,0.00,0.00
742109,2.10663,2.10663,2.10663,1.36125,0.00000,0.87752,26.8815,1,4,0.13,0.00,0.00
742255,2.10663,2.10663,2.10663,1.36138,0.00000,0.87752,26.8815,1,4,0.13,0.00,0.00
742396,2.10663,2.10663,2.10663,1.36125,0.00000,0.87752,26.8815,1,4,0.13,0.00,0.00
742539,2.10663,2.10663,2.10663,1.36138,0.00000,0.87752,26.8815,1,4,0.13,0.00,0.00
742680,2.10663,2.10663,2.10663,1.36125,0.00000,0.87752,26.8827,1,4,0.13,0.00,0.00
742824,2.10663,2.10663,2.10663,1.36138,0.00000,0.87752,26.8827,1,4,0.13,0.00,0.00
742966,2.10663,2.10663,2.10663,1.36138,0.00000,0.87752,26.8815,1,4,0.13,0.00,0.00
743109,2.10663,2.10663,2.10663,1.36125,0.00000,0.87752,26.8827,1,4,0.13,0.00,0.00
743256,2.10675,2.10675,2.10675,1.36125,0.00000,0.87754,26.8815,1,4,0.13,0.00,0.00
743422,2.10675,2.10675,2.10675,1.36125,0.00000,0.87754,26.8827,1,4,0.13,0.00,0.00
743559,2.10675,2.10675,2.10675,1.36138,0.00000,0.87754,26.8827,1,4,0.13,0.00,0.00
743703,2.10675,2.10675,2.10675,1.36138,0.00000,0.87754,26.8827,1,4,0.13,0.00,0.00
743841,2.10675,2.10675,2.10675,1.36138,0.00000,0.87754,26.8827,1,4,0.13,0.00,0.00
743982,2.10675,2.10675,2.10675,1.36138,0.00000,0.87754,26.8827,1,4,0.13,0.00,0.00
744123,2.10675,2.10675,2.10675,1.36112,0.00000,0.87754,26.8827,1,4,0.13,0.00,0.00
744271,2.10687,2.10687,2.10687,1.36138,0.00000,0.87757,26.8827,1,4,0.13,0.00,0.00
744408,2.10675,2.10675,2.10675,1.36125,0.00000,0.87754,26.8827,1,4,0.13,0.00,0.00
744546,2.10675,2.10675,2.10675,1.36138,0.00000,0.87754,26.8827,1,4,0.13,0.00,0.00
744690,2.10687,2.10687,2.10687,1.36138,0.00000,0.87757,26.8838,1,4,0.13,0.00,0.00
744831,2.10675,2.10675,2.10675,1.36125,0.00000,0.87754,26.8827,1,4,0.13,0.00,0.00
744972,2.10687,2.10687,2.10687,1.36138,0.00000,0.87757,26.8827,1,4,0.13,0.00,0.00
745115,2.10687,2.10687,2.10687,1.36125,0.00000,0.87757,26.8827,1,4,0.13,0.00,0.00
745258,2.10675,2.10675,2.10675,1.36125,0.00000,0.87754,26.8827,1,4,0.13,0.00,0.00
745396,2.10687,2.10687,2.10687,1.36125,0.00000,0.87757,26.8827,1,4,0.13,0.00,0.00
745538,2.10675,2.10675,2.10675,1.36138,0.00000,0.87754,26.8838,1,4,0.13,0.00,0.00
745680,2.10675,2.10675,2.10675,1.36138,0.00000,0.87754,26.8827,1,4,0.13,0.00,0.00
745827,2.10675,2.10675,2.10675,1.36138,0.00000,0.87754,26.8827,1,4,0.13,0.00,0.00
745966,2.10675,2.10675,2.10675,1.36125,0.00000,0.87754,26.8827,1,4,0.13,0.00,0.00
746109,2.10687,2.10687,2.10687,1.36138,0.00000,0.87757,26.8827,1,4,0.13,0.00,0.00
746253,2.10675,2.10675,2.10675,1.36138,0.00000,0.87754,26.8827,1,4,0.13,0.00,0.00
746395,2.10687,2.10687,2.10687,1.36125,0.00000,0.87757,26.8827,1,4,0.13,0.00,0.00
746538,2.10675,2.10675,2.10675,1.36138,0.00000,0.87754,26.8827,1,4,0.13,0.00,0.00
746680,2.10675,2.10675,2.10675,1.36138,0.00000,0.87754,26.8827,1,4,0.13,0.00,0.00
746823,2.10675,2.10675,2.10675,1.36125,0.00000,0.87754,26.8827,1,4,0.13,0.00,0.00
746966,2.10675,2.10675,2.10675,1.36138,0.00000,0.87754,26.8838,1,4,0.13,0.00,0.00
747109,2.10687,2.10687,2.10687,1.36138,0.00000,0.87757,26.8838,1,4,0.13,0.00,0.00
747259,2.10675,2.10675,2.10675,1.36138,0.00000,0.87754,26.8827,1,4,0.13,0.00,0.00
747400,2.10675,2.10675,2.10675,1.36125,0.00000,0.87754,26.8827,1,4,0.13,0.00,0.00
747541,2.10675,2.10675,2.10675,1.36138,0.00000,0.87754,26.8838,1,4,0.13,0.00,0.00
747680,2.10675,2.10675,2.10675,1.36138,0.00000,0.87754,26.8827,1,4,0.13,0.00,0.00
747829,2.10687,2.10687,2.10687,1.36125,0.00000,0.87757,26.8838,1,4,0.13,0.00,0.00
747967,2.10687,2.10687,2.10687,1.36138,0.00000,0.87757,26.8838,1,4,0.13,0.00,0.00
748109,2.10687,2.10687,2.10687,1.36125,0.00000,0.87757,26.8827,1,4,0.13,0.00,0.00
748256,2.10687,2.10687,2.10687,1.36125,0.00000,0.87757,26.8838,1,4,0.13,0.00,0.00
748397,2.10687,2.10687,2.10687,1.36138,0.00000,0.87757,26.8838,1,4,0.13,0.00,0.00
748538,2.10687,2.10687,2.10687,1.36125,0.00000,0.87757,26.8838,1,4,0.13,0.00,0.00
748681,2.10687,2.10687,2.10687,1.36138,0.00000,0.87757,26.8838,1,4,0.13,0.00,0.00
748825,2.10687,2.10687,2.10687,1.36138,0.00000,0.87757,26.8838,1,4,0.13,0.00,0.00
748966,2.10675,2.10675,2.10675,1.36125,0.00000,0.87754,26.8838,1,4,0.13,0.00,0.00
749109,2.10687,2.10687,2.10687,1.36138,0.00000,0.87757,26.8838,1,4,0.13,0.00,0.00
749256,2.10675,2.10675,2.10675,1.36138,0.00000,0.87754,26.8838,1,4,0.13,0.00,0.00
749395,2.10675,2.10675,2.10675,1.36112,0.00000,0.87754,26.8838,1,4,0.13,0.00,0.00
749538,2.10675,2.10675,2.10675,1.36138,0.00000,0.87754,26.8838,1,4,0.13,0.00,0.00
749680,2.10687,2.10687,2.10687,1.36138,0.00000,0.87757,26.8838,1,4,0.13,0.00,0.00
749824,2.10675,2.10675,2.10675,1.36138,0.00000,0.87754,26.8838,1,4,0.13,0.00,0.00
749966,2.10675,2.10675,2.10675,1.36125,0.00000,0.87754,26.8838,1,4,0.13,0.00,0.00
750109,2.10675,2.10675,2.10675,1.36138,0.00000,0.87754,26.8838,1,4,0.13,0.00,0.00
750252,2.10687,2.10687,2.10687,1.36125,0.00000,0.87757,26.8838,1,4,0.13,0.00,0.00
750395,2.10675,2.10675,2.10675,1.36138,0.00000,0.87754,26.8838,1,4,0.13,0.00,0.00
750538,2.10675,2.10675,2.10675,1.36125,0.00000,0.87754,26.8838,1,4,0.13,0.00,0.00
750680,2.10675,2.10675,2.10675,1.36125,0.00000,0.87754,26.8838,1,4,0.13,0.00,0.00
750827,2.10675,2.10675,2.10675,1.36138,0.00000,0.87754,26.8838,1,4,0.13,0.00,0.00
750968,2.10687,2.10687,2.10687,1.36125,0.00000,0.87757,26.8838,1,4,0.13,0.00,0.00
751109,2.10675,2.10675,2.10675,1.36138,0.00000,0.87754,26.8838,1,4,0.13,0.00,0.00
751252,2.10675,2.10675,2.10675,1.36138,0.00000,0.87754,26.8838,1,4,0.13,0.00,0.00
751396,2.10687,2.10687,2.10687,1.36138,0.00000,0.87757,26.8838,1,4,0.13,0.00,0.00
751538,2.10675,2.10675,2.10675,1.36125,0.00000,0.87754,26.8838,1,4,0.13,0.00,0.00
751680,2.10687,2.10687,2.10687,1.36125,0.00000,0.87757,26.8838,1,4,0.13,0.00,0.00
751827,2.10687,2.10687,2.10687,1.36125,0.00000,0.87757,26.8850,1,4,0.13,0.00,0.00
751966,2.10687,2.10687,2.10687,1.36125,0.00000,0.87757,26.8850,1,4,0.13,0.00,0.00
752230,2.10675,2.10675,2.10675,1.36138,0.00000,0.87754,26.8838,1,4,0.13,0.00,0.00
752375,2.10687,2.10687,2.10687,1.36138,0.00000,0.87757,26.8850,1,4,0.13,0.00,0.00
752517,2.10675,2.10675,2.10675,1.36138,0.00000,0.87754,26.8850,1,4,0.13,0.00,0.00
752659,2.10675,2.10675,2.10675,1.36125,0.00000,0.87754,26.8838,1,4,0.13,0.00,0.00
752802,2.10687,2.10687,2.10687,1.36125,0.00000,0.87757,26.8850,1,4,0.13,0.00,0.00
752940,2.10687,2.10687,2.10687,1.36138,0.00000,0.87757,26.8850,1,4,0.13,0.00,0.00
753079,2.10675,2.10675,2.10675,1.36125,0.00000,0.87754,26.8850,1,4,0.13,0.00,0.00
753230,2.10675,2.10675,2.10675,1.36125,0.00000,0.87754,26.8850,1,4,0.13,0.00,0.00
753372,2.10687,2.10687,2.10687,1.36125,0.00000,0.87757,26.8850,1,4,0.13,0.00,0.00
753514,2.10675,2.10675,2.10675,1.36125,0.00000,0.87754,26.8850,1,4,0.13,0.00,0.00
753652,2.10675,2.10675,2.10675,1.36138,0.00000,0.87754,26.8850,1,4,0.13,0.00,0.00
753796,2.10675,2.10675,2.10675,1.36138,0.00000,0.87754,26.8850,1,4,0.13,0.00,0.00
753936,2.10687,2.10687,2.10687,1.36125,0.00000,0.87757,26.8850,1,4,0.13,0.00,0.00
754081,2.10675,2.10675,2.10675,1.36150,0.00000,0.87754,26.8850,1,4,0.13,0.00,0.00
754228,2.10675,2.10675,2.10675,1.36138,0.00000,0.87754,26.8850,1,4,0.13,0.00,0.00
754370,2.10675,2.10675,2.10675,1.36138,0.00000,0.87754,26.8850,1,4,0.13,0.00,0.00
754508,2.10675,2.10675,2.10675,1.36125,0.00000,0.87754,26.8850,1,4,0.13,0.00,0.00
754646,2.10675,2.10675,2.10675,1.36138,0.00000,0.87754,26.8850,1,4,0.13,0.00,0.00
754791,2.10675,2.10675,2.10675,1.36125,0.00000,0.87754,26.8850,1,4,0.13,0.00,0.00
754936,2.10675,2.10675,2.10675,1.36125,0.00000,0.87754,26.8850,1,4,0.13,0.00,0.00
755078,2.10675,2.10675,2.10675,1.36112,0.00000,0.87754,26.8850,1,4,0.13,0.00,0.00
755225,2.10675,2.10675,2.10675,1.36112,0.00000,0.87754,26.8850,1,4,0.13,0.00,0.00
755363,2.10675,2.10675,2.10675,1.36138,0.00000,0.87754,26.8850,1,4,0.13,0.00,0.00
755501,2.10675,2.10675,2.10675,1.36138,0.00000,0.87754,26.8850,1,4,0.13,0.00,0.00
755640,2.10675,2.10675,2.10675,1.36125,0.00000,0.87754,26.8850,1,4,0.13,0.00,0.00
755790,2.10675,2.10675,2.10675,1.36125,0.00000,0.87754,26.8850,1,4,0.13,0.00,0.00
755932,2.10675,2.10675,2.10675,1.36125,0.00000,0.87754,26.8850,1,4,0.13,0.00,0.00
756074,2.10663,2.10663,2.10663,1.36125,0.00000,0.87752,26.8861,1,4,0.13,0.00,0.00
756217,2.10663,2.10663,2.10663,1.36138,0.00000,0.87752,26.8850,1,4,0.13,0.00,0.00
756355,2.10675,2.10675,2.10675,1.36138,0.00000,0.87754,26.8850,1,4,0.13,0.00,0.00
756494,2.10663,2.10663,2.10663,1.36138,0.00000,0.87752,26.8861,1,4,0.13,0.00,0.00
756633,2.10663,2.10663,2.10663,1.36125,0.00000,0.87752,26.8861,1,4,0.13,0.00,0.00
756903,2.10675,2.10675,2.10675,1.36125,0.00000,0.87754,26.8861,1,4,0.13,0.00,0.00
757247,2.10675,2.10675,2.10675,1.36125,0.00000,0.87754,26.8861,1,4,0.13,0.00,0.00
757598,2.10663,2.10663,2.10663,1.36125,0.00000,0.87752,26.8850,1,4,0.13,0.00,0.00
757741,2.10663,2.10663,2.10663,1.36138,0.00000,0.87752,26.8861,1,4,0.13,0.00,0.00
757880,2.10675,2.10675,2.10675,1.36138,0.00000,0.87754,26.8861,1,4,0.13,0.00,0.00
758042,2.10663,2.10663,2.10663,1.36125,0.00000,0.87752,26.8861,1,4,0.13,0.00,0.00
758195,2.10663,2.10663,2.10663,1.36138,0.00000,0.87752,26.8861,1,4,0.13,0.00,0.00
758336,2.10663,2.10663,2.10663,1.36138,0.00000,0.87752,26.8861,1,4,0.13,0.00,0.00
758473,2.10663,2.10663,2.10663,1.36125,0.00000,0.87752,26.8861,1,4,0.13,0.00,0.00
758611,2.10663,2.10663,2.10663,1.36125,0.00000,0.87752,26.8861,1,4,0.13,0.00,0.00
758755,2.10663,2.10663,2.10663,1.36100,0.00000,0.87752,26.8861,1,4,0.13,0.00,0.00
758894,2.10663,2.10663,2.10663,1.36125,0.00000,0.87752,26.8861,1,4,0.13,0.00,0.00
759041,2.10663,2.10663,2.10663,1.36125,0.00000,0.87752,26.8861,1,4,0.13,0.00,0.00
759188,2.10663,2.10663,2.10663,1.36138,0.00000,0.87752,26.8861,1,4,0.13,0.00,0.00
759326,2.10663,2.10663,2.10663,1.36138,0.00000,0.87752,26.8861,1,4,0.13,0.00,0.00
759464,2.10663,2.10663,2.10663,1.36125,0.00000,0.87752,26.8872,1,4,0.13,0.00,0.00
759603,2.10663,2.10663,2.10663,1.36138,0.00000,0.87752,26.8861,1,4,0.13,0.00,0.00
759747,2.10675,2.10675,2.10675,1.36125,0.00000,0.87754,26.8861,1,4,0.13,0.00,0.00
759894,2.10663,2.10663,2.10663,1.36138,0.00000,0.87752,26.8861,1,4,0.13,0.00,0.00
760035,2.10663,2.10663,2.10663,1.36138,0.00000,0.87752,26.8861,1,4,0.13,0.00,0.00
760172,2.10675,2.10675,2.10675,1.36138,0.00000,0.87754,26.8872,1,4,0.13,0.00,0.00
760315,2.10663,2.10663,2.10663,1.36138,0.00000,0.87752,26.8872,1,4,0.13,0.00,0.00
760454,2.10663,2.10663,2.10663,1.36125,0.00000,0.87752,26.8861,1,4,0.13,0.00,0.00
760593,2.10663,2.10663,2.10663,1.36138,0.00000,0.87752,26.8861,1,4,0.13,0.00,0.00
760746,2.10663,2.10663,2.10663,1.36125,0.00000,0.87752,26.8872,1,4,0.13,0.00,0.00
760888,2.10663,2.10663,2.10663,1.36125,0.00000,0.87752,26.8872,1,4,0.13,0.00,0.00
761025,2.10663,2.10663,2.10663,1.36125,0.00000,0.87752,26.8872,1,4,0.13,0.00,0.00
761163,2.10663,2.10663,2.10663,1.36125,0.00000,0.87752,26.8872,1,4,0.13,0.00,0.00
761307,2.10675,2.10675,2.10675,1.36100,0.00000,0.87754,26.8872,1,4,0.13,0.00,0.00
761446,2.10675,2.10675,2.10675,1.36125,0.00000,0.87754,26.8872,1,4,0.13,0.00,0.00
761593,2.10663,2.10663,2.10663,1.36125,0.00000,0.87752,26.8872,1,4,0.13,0.00,0.00
761740,2.10675,2.10675,2.10675,1.36125,0.00000,0.87754,26.8872,1,4,0.13,0.00,0.00
761878,2.10663,2.10663,2.10663,1.36138,0.00000,0.87752,26.8872,1,4,0.13,0.00,0.00
762016,2.10650,2.10650,2.10650,1.36112,0.00000,0.87749,26.8872,1,4,0.13,0.00,0.00
762155,2.10663,2.10663,2.10663,1.36125,0.00000,0.87752,26.8872,1,4,0.13,0.00,0.00
762299,2.10663,2.10663,2.10663,1.36138,0.00000,0.87752,26.8872,1,4,0.13,0.00,0.00
762441,2.10663,2.10663,2.10663,1.36138,0.00000,0.87752,26.8872,1,4,0.13,0.00,0.00
762588,2.10663,2.10663,2.10663,1.36125,0.00000,0.87752,26.8872,1,4,0.13,0.00,0.00
762731,2.10650,2.10650,2.10650,1.36138,0.00000,0.87749,26.8872,1,4,0.13,0.00,0.00
762876,2.10650,2.10650,2.10650,1.36138,0.00000,0.87749,26.8872,1,4,0.13,0.00,0.00
763015,2.10650,2.10650,2.10650,1.36138,0.00000,0.87749,26.8872,1,4,0.13,0.00,0.00
763154,2.10650,2.10650,2.10650,1.36125,0.00000,0.87749,26.8872,1,4,0.13,0.00,0.00
763301,2.10650,2.10650,2.10650,1.36138,0.00000,0.87749,26.8872,1,4,0.13,0.00,0.00
763458,2.10650,2.10650,2.10650,1.36138,0.00000,0.87749,26.8872,1,0,0.13,0.00,0.00
763596,2.10650,2.10650,2.10650,1.36112,0.00000,0.87749,26.8872,1,0,0.13,0.00,0.00
763739,2.10650,2.10650,2.10650,1.36125,0.00000,0.87749,26.8872,1,0,0.13,0.00,0.00
763878,2.10650,2.10650,2.10650,1.36125,0.00000,0.87749,26.8872,1,0,0.13,0.00,0.00
764017,2.10650,2.10650,2.10650,1.36125,0.00000,0.87749,26.8884,1,0,0.13,0.00,0.00
764159,2.10663,2.10663,2.10663,1.36138,0.00000,0.87752,26.8884,1,0,0.13,0.00,0.00
764312,2.10650,2.10650,2.10650,1.36138,0.00000,0.87749,26.8872,1,0,0.13,0.00,0.00
764450,2.10650,2.10650,2.10650,1.36138,0.00000,0.87749,26.8884,1,0,0.13,0.00,0.00
764588,2.10650,2.10650,2.10650,1.36138,0.00000,0.87749,26.8884,1,0,0.13,0.00,0.00
764732,2.10650,2.10650,2.10650,1.36138,0.00000,0.87749,26.8872,1,0,0.13,0.00,0.00
764871,2.10650,2.10650,2.10650,1.36125,0.00000,0.87749,26.8884,1,0,0.13,0.00,0.00
765013,2.10650,2.10650,2.10650,1.36125,0.00000,0.87749,26.8884,1,0,0.13,0.00,0.00
765160,2.10650,2.10650,2.10650,1.36138,0.00000,0.87749,26.8884,1,0,0.13,0.00,0.00
765303,2.10650,2.10650,2.10650,1.36125,0.00000,0.87749,26.8884,1,0,0.13,0.00,0.00
765441,2.10650,2.10650,2.10650,1.36125,0.00000,0.87749,26.8884,1,0,0.13,0.00,0.00
765580,2.10650,2.10650,2.10650,1.36125,0.00000,0.87749,26.8884,1,0,0.13,0.00,0.00
765724,2.10637,2.10637,2.10637,1.36125,0.00000,0.87746,26.8884,1,0,0.13,0.00,0.00
765866,2.10650,2.10650,2.10650,1.36125,0.00000,0.87749,26.8884,1,0,0.13,0.00,0.00
766013,2.10637,2.10637,2.10637,1.36138,0.00000,0.87746,26.8884,1,0,0.13,0.00,0.00
766151,2.10637,2.10637,2.10637,1.36138,0.00000,0.87746,26.8884,1,0,0.13,0.00,0.00
766294,2.10637,2.10637,2.10637,1.36125,0.00000,0.87746,26.8884,1,0,0.13,0.00,0.00
766433,2.10650,2.10650,2.10650,1.36138,0.00000,0.87749,26.8884,1,0,0.13,0.00,0.00
766572,2.10650,2.10650,2.10650,1.36125,0.00000,0.87749,26.8884,1,0,0.13,0.00,0.00
766719,2.10650,2.10650,2.10650,1.36125,0.00000,0.87749,26.8884,1,0,0.13,0.00,0.00
766866,2.10637,2.10637,2.10637,1.36138,0.00000,0.87746,26.8884,1,0,0.13,0.00,0.00
767004,2.10650,2.10650,2.10650,1.36112,0.00000,0.87749,26.8884,1,0,0.13,0.00,0.00
767142,2.10650,2.10650,2.10650,1.36138,0.00000,0.87749,26.8884,1,0,0.13,0.00,0.00
767286,2.10650,2.10650,2.10650,1.36125,0.00000,0.87749,26.8884,1,0,0.13,0.00,0.00
767425,2.10650,2.10650,2.10650,1.36112,0.00000,0.87749,26.8884,1,0,0.13,0.00,0.00
767567,2.10637,2.10637,2.10637,1.36138,0.00000,0.87746,26.8895,1,0,0.13,0.00,0.00
767714,2.10637,2.10637,2.10637,1.36138,0.00000,0.87746,26.8884,1,0,0.13,0.00,0.00
767857,2.10650,2.10650,2.10650,1.36138,0.00000,0.87749,26.8884,1,0,0.13,0.00,0.00
767995,2.10637,2.10637,2.10637,1.36138,0.00000,0.87746,26.8884,1,0,0.13,0.00,0.00
768134,2.10637,2.10637,2.10637,1.36112,0.00000,0.87746,26.8884,1,0,0.13,0.00,0.00
768278,2.10637,2.10637,2.10637,1.36138,0.00000,0.87746,26.8884,1,0,0.13,0.00,0.00
768420,2.10637,2.10637,2.10637,1.36125,0.00000,0.87746,26.8884,1,0,0.13,0.00,0.00
